10	7
10.01	9
10.02	7
10.03	9
10.04	10
10.05	12
10.06	10
10.07	12
10.08	10
10.09	7
10.1	8
10.11	4
10.12	14
10.13	8
10.14	5
10.15	6
10.16	9
10.17	10
10.18	8
10.19	11
10.2	10
10.21	7
10.22	8
10.23	6
10.24	8
10.25	7
10.26	9
10.27	7
10.28	6
10.29	8
10.3	8
10.31	8
10.32	6
10.33	8
10.34	7
10.35	6
10.36	5
10.37	7
10.38	9
10.39	8
10.4	7
10.41	6
10.42	3
10.43	9
10.44	11
10.45	4
10.46	9
10.47	8
10.48	7
10.49	8
10.5	5
10.51	8
10.52	7
10.53	9
10.54	10
10.55	4
10.56	7
10.57	11
10.58	7
10.59	8
10.6	10
10.61	8
10.62	10
10.63	9
10.64	7
10.65	7
10.66	7
10.67	4
10.68	6
10.69	7
10.7	5
10.71	8
10.72	5
10.73	4
10.74	10
10.75	12
10.76	7
10.77	5
10.78	3
10.79	8
10.8	8
10.81	9
10.82	7
10.83	9
10.84	8
10.85	6
10.86	9
10.87	7
10.88	5
10.89	10
10.9	11
10.91	7
10.92	12
10.93	6
10.94	11
10.95	9
10.96	7
10.97	6
10.98	14
10.99	8
11	7
11.01	7
11.02	9
11.03	5
11.04	4
11.05	7
11.06	11
11.07	7
11.08	7
11.09	7
11.1	14
11.11	8
11.12	6
11.13	9
11.14	7
11.15	7
11.16	9
11.17	6
11.18	2
11.19	5
11.2	0
11.21	8
11.22	3
11.23	5
11.24	8
11.25	8
11.26	7
11.27	6
11.28	4
11.29	8
11.3	6
11.31	10
11.32	8
11.33	5
11.34	5
11.35	6
11.36	2
11.37	9
11.38	5
11.39	15
11.4	10
11.41	8
11.42	4
11.43	7
11.44	10
11.45	13
11.46	10
11.47	7
11.48	5
11.49	8
11.5	9
11.51	8
11.52	8
11.53	8
11.54	10
11.55	8
11.56	6
11.57	5
11.58	15
11.59	9
11.6	7
11.61	4
11.62	5
11.63	7
11.64	6
11.65	5
11.66	11
11.67	2
11.68	6
11.69	3
11.7	4
11.71	10
11.72	9
11.73	9
11.74	8
11.75	7
11.76	8
11.77	9
11.78	3
11.79	5
11.8	7
11.81	11
11.82	9
11.83	12
11.84	8
11.85	3
11.86	11
11.87	8
11.88	8
11.89	14
11.9	11
11.91	11
11.92	8
11.93	11
11.94	6
11.95	5
11.96	3
11.97	10
11.98	9
11.99	8
12	6
12.01	8
12.02	6
12.03	12
12.04	7
12.05	11
12.06	8
12.07	10
12.08	11
12.09	8
12.1	9
12.11	4
12.12	3
12.13	12
12.14	8
12.15	9
12.16	5
12.17	6
12.18	6
12.19	5
12.2	5
12.21	8
12.22	4
12.23	6
12.24	12
12.25	7
12.26	4
12.27	10
12.28	7
12.29	2
12.3	6
12.31	7
12.32	2
12.33	8
12.34	6
12.35	8
12.36	6
12.37	6
12.38	10
12.39	8
12.4	6
12.41	8
12.42	10
12.43	11
12.44	6
12.45	6
12.46	7
12.47	7
12.48	3
12.49	5
12.5	9
12.51	7
12.52	6
12.53	7
12.54	8
12.55	11
12.56	8
12.57	8
12.58	8
12.59	7
12.6	3
12.61	9
12.62	9
12.63	9
12.64	7
12.65	8
12.66	8
12.67	4
12.68	11
12.69	12
12.7	13
12.71	15
12.72	7
12.73	9
12.74	4
12.75	9
12.76	10
12.77	6
12.78	9
12.79	4
12.8	5
12.81	7
12.82	5
12.83	5
12.84	9
12.85	5
12.86	8
12.87	7
12.88	4
12.89	7
12.9	6
12.91	7
12.92	9
12.93	2
12.94	7
12.95	8
12.96	8
12.97	6
12.98	13
12.99	8
13	9
13.01	7
13.02	9
13.03	5
13.04	11
13.05	9
13.06	3
13.07	3
13.08	7
13.09	6
13.1	8
13.11	7
13.12	4
13.13	4
13.14	8
13.15	6
13.16	6
13.17	7
13.18	8
13.19	3
13.2	7
13.21	8
13.22	7
13.23	6
13.24	9
13.25	10
13.26	5
13.27	4
13.28	6
13.29	3
13.3	7
13.31	6
13.32	3
13.33	6
13.34	8
13.35	8
13.36	9
13.37	6
13.38	7
13.39	4
13.4	5
13.41	5
13.42	8
13.43	7
13.44	5
13.45	10
13.46	12
13.47	4
13.48	3
13.49	3
13.5	8
13.51	13
13.52	12
13.53	6
13.54	7
13.55	3
13.56	7
13.57	10
13.58	6
13.59	4
13.6	13
13.61	6
13.62	4
13.63	2
13.64	7
13.65	15
13.66	2
13.67	13
13.68	9
13.69	4
13.7	3
13.71	7
13.72	10
13.73	9
13.74	9
13.75	6
13.76	6
13.77	5
13.78	2
13.79	10
13.8	10
13.81	3
13.82	9
13.83	10
13.84	7
13.85	3
13.86	7
13.87	5
13.88	10
13.89	10
13.9	5
13.91	10
13.92	6
13.93	9
13.94	5
13.95	7
13.96	11
13.97	3
13.98	10
13.99	9
14	3
14.01	1
14.02	10
14.03	11
14.04	6
14.05	4
14.06	8
14.07	9
14.08	14
14.09	7
14.1	10
14.11	7
14.12	8
14.13	13
14.14	3
14.15	6
14.16	4
14.17	4
14.18	7
14.19	7
14.2	13
14.21	4
14.22	5
14.23	9
14.24	2
14.25	3
14.26	7
14.27	8
14.28	10
14.29	14
14.3	6
14.31	9
14.32	6
14.33	4
14.34	4
14.35	4
14.36	3
14.37	7
14.38	9
14.39	6
14.4	9
14.41	8
14.42	10
14.43	9
14.44	13
14.45	6
14.46	5
14.47	9
14.48	8
14.49	7
14.5	9
14.51	7
14.52	7
14.53	7
14.54	8
14.55	3
14.56	15
14.57	3
14.58	3
14.59	7
14.6	7
14.61	8
14.62	7
14.63	6
14.64	13
14.65	4
14.66	8
14.67	2
14.68	4
14.69	7
14.7	8
14.71	5
14.72	11
14.73	13
14.74	7
14.75	8
14.76	6
14.77	10
14.78	7
14.79	5
14.8	8
14.81	8
14.82	13
14.83	9
14.84	8
14.85	6
14.86	7
14.87	9
14.88	3
14.89	6
14.9	3
14.91	5
14.92	5
14.93	8
14.94	10
14.95	9
14.96	5
14.97	7
14.98	10
14.99	3
15	7
15.01	11
15.02	9
15.03	7
15.04	4
15.05	8
15.06	7
15.07	7
15.08	10
15.09	6
15.1	3
15.11	3
15.12	2
15.13	10
15.14	6
15.15	9
15.16	8
15.17	3
15.18	9
15.19	8
15.2	5
15.21	13
15.22	9
15.23	9
15.24	6
15.25	9
15.26	5
15.27	5
15.28	13
15.29	12
15.3	6
15.31	11
15.32	8
15.33	4
15.34	11
15.35	4
15.36	15
15.37	9
15.38	6
15.39	7
15.4	7
15.41	5
15.42	10
15.43	8
15.44	10
15.45	3
15.46	2
15.47	17
15.48	4
15.49	6
15.5	5
15.51	6
15.52	7
15.53	2
15.54	5
15.55	10
15.56	2
15.57	5
15.58	4
15.59	8
15.6	8
15.61	4
15.62	10
15.63	4
15.64	8
15.65	5
15.66	8
15.67	8
15.68	6
15.69	10
15.7	7
15.71	10
15.72	6
15.73	2
15.74	6
15.75	1
15.76	14
15.77	8
15.78	6
15.79	6
15.8	6
15.81	6
15.82	10
15.83	2
15.84	7
15.85	6
15.86	8
15.87	13
15.88	10
15.89	7
15.9	1
15.91	3
15.92	7
15.93	6
15.94	4
15.95	5
15.96	7
15.97	5
15.98	7
15.99	3
16	5
16.01	9
16.02	5
16.03	10
16.04	7
16.05	8
16.06	4
16.07	7
16.08	8
16.09	7
16.1	6
16.11	3
16.12	6
16.13	8
16.14	10
16.15	4
16.16	6
16.17	9
16.18	4
16.19	8
16.2	7
16.21	13
16.22	8
16.23	9
16.24	6
16.25	7
16.26	12
16.27	10
16.28	7
16.29	5
16.3	8
16.31	7
16.32	12
16.33	8
16.34	3
16.35	7
16.36	2
16.37	6
16.38	4
16.39	6
16.4	6
16.41	10
16.42	5
16.43	7
16.44	5
16.45	10
16.46	6
16.47	4
16.48	4
16.49	7
16.5	4
16.51	6
16.52	7
16.53	7
16.54	11
16.55	8
16.56	11
16.57	6
16.58	5
16.59	10
16.6	3
16.61	7
16.62	5
16.63	7
16.64	3
16.65	5
16.66	6
16.67	3
16.68	5
16.69	5
16.7	9
16.71	6
16.72	5
16.73	12
16.74	8
16.75	6
16.76	4
16.77	4
16.78	4
16.79	5
16.8	15
16.81	6
16.82	6
16.83	5
16.84	10
16.85	6
16.86	5
16.87	9
16.88	5
16.89	12
16.9	6
16.91	5
16.92	2
16.93	8
16.94	6
16.95	9
16.96	7
16.97	12
16.98	5
16.99	6
17	9
17.01	4
17.02	8
17.03	3
17.04	8
17.05	10
17.06	4
17.07	6
17.08	4
17.09	5
17.1	4
17.11	7
17.12	3
17.13	8
17.14	4
17.15	10
17.16	8
17.17	6
17.18	5
17.19	5
17.2	2
17.21	8
17.22	5
17.23	12
17.24	7
17.25	3
17.26	4
17.27	9
17.28	8
17.29	10
17.3	9
17.31	8
17.32	6
17.33	5
17.34	4
17.35	4
17.36	6
17.37	5
17.38	5
17.39	7
17.4	9
17.41	6
17.42	8
17.43	4
17.44	7
17.45	8
17.46	9
17.47	8
17.48	6
17.49	6
17.5	5
17.51	5
17.52	9
17.53	8
17.54	7
17.55	5
17.56	5
17.57	5
17.58	7
17.59	3
17.6	4
17.61	8
17.62	8
17.63	2
17.64	8
17.65	7
17.66	8
17.67	12
17.68	5
17.69	4
17.7	4
17.71	5
17.72	8
17.73	8
17.74	4
17.75	6
17.76	6
17.77	3
17.78	9
17.79	10
17.8	6
17.81	4
17.82	8
17.83	6
17.84	4
17.85	6
17.86	6
17.87	7
17.88	3
17.89	6
17.9	4
17.91	8
17.92	4
17.93	3
17.94	7
17.95	0
17.96	5
17.97	7
17.98	4
17.99	8
18	6
18.01	5
18.02	4
18.03	6
18.04	6
18.05	2
18.06	7
18.07	12
18.08	8
18.09	8
18.1	7
18.11	10
18.12	9
18.13	8
18.14	4
18.15	9
18.16	3
18.17	10
18.18	6
18.19	8
18.2	8
18.21	3
18.22	8
18.23	11
18.24	7
18.25	5
18.26	6
18.27	10
18.28	9
18.29	13
18.3	9
18.31	7
18.32	6
18.33	8
18.34	9
18.35	6
18.36	6
18.37	7
18.38	3
18.39	7
18.4	7
18.41	4
18.42	5
18.43	6
18.44	7
18.45	4
18.46	11
18.47	8
18.48	4
18.49	12
18.5	9
18.51	5
18.52	2
18.53	4
18.54	5
18.55	4
18.56	6
18.57	9
18.58	5
18.59	10
18.6	10
18.61	3
18.62	8
18.63	5
18.64	6
18.65	5
18.66	11
18.67	6
18.68	5
18.69	9
18.7	9
18.71	6
18.72	7
18.73	8
18.74	6
18.75	6
18.76	8
18.77	8
18.78	6
18.79	9
18.8	11
18.81	3
18.82	8
18.83	4
18.84	9
18.85	6
18.86	6
18.87	10
18.88	3
18.89	4
18.9	4
18.91	6
18.92	4
18.93	7
18.94	4
18.95	8
18.96	5
18.97	8
18.98	8
18.99	3
19	9
19.01	5
19.02	5
19.03	7
19.04	11
19.05	5
19.06	8
19.07	5
19.08	1
19.09	4
19.1	6
19.11	7
19.12	7
19.13	7
19.14	5
19.15	11
19.16	6
19.17	5
19.18	6
19.19	5
19.2	3
19.21	4
19.22	5
19.23	5
19.24	6
19.25	10
19.26	4
19.27	5
19.28	3
19.29	9
19.3	3
19.31	8
19.32	7
19.33	6
19.34	9
19.35	6
19.36	11
19.37	10
19.38	5
19.39	10
19.4	6
19.41	7
19.42	8
19.43	6
19.44	6
19.45	3
19.46	5
19.47	6
19.48	9
19.49	7
19.5	5
19.51	4
19.52	10
19.53	7
19.54	3
19.55	11
19.56	7
19.57	6
19.58	9
19.59	7
19.6	5
19.61	8
19.62	12
19.63	10
19.64	6
19.65	6
19.66	7
19.67	11
19.68	10
19.69	10
19.7	6
19.71	7
19.72	7
19.73	10
19.74	3
19.75	11
19.76	12
19.77	6
19.78	4
19.79	7
19.8	11
19.81	2
19.82	5
19.83	3
19.84	9
19.85	10
19.86	7
19.87	5
19.88	6
19.89	4
19.9	6
19.91	1
19.92	9
19.93	4
19.94	3
19.95	7
19.96	6
19.97	6
19.98	2
19.99	9
20	4
20.01	7
20.02	8
20.03	4
20.04	5
20.05	8
20.06	4
20.07	4
20.08	3
20.09	10
20.1	5
20.11	5
20.12	6
20.13	7
20.14	7
20.15	13
20.16	5
20.17	11
20.18	6
20.19	8
20.2	8
20.21	8
20.22	5
20.23	6
20.24	6
20.25	3
20.26	3
20.27	5
20.28	8
20.29	4
20.3	7
20.31	6
20.32	10
20.33	4
20.34	4
20.35	9
20.36	3
20.37	8
20.38	4
20.39	10
20.4	7
20.41	9
20.42	5
20.43	6
20.44	1
20.45	7
20.46	6
20.47	2
20.48	4
20.49	5
20.5	8
20.51	7
20.52	6
20.53	4
20.54	4
20.55	5
20.56	8
20.57	3
20.58	5
20.59	9
20.6	6
20.61	12
20.62	3
20.63	10
20.64	12
20.65	8
20.66	10
20.67	4
20.68	6
20.69	6
20.7	5
20.71	6
20.72	3
20.73	8
20.74	4
20.75	9
20.76	4
20.77	5
20.78	2
20.79	7
20.8	2
20.81	6
20.82	4
20.83	9
20.84	6
20.85	7
20.86	6
20.87	6
20.88	7
20.89	6
20.9	7
20.91	6
20.92	4
20.93	6
20.94	8
20.95	5
20.96	9
20.97	4
20.98	4
20.99	4
21	8
21.01	10
21.02	6
21.03	9
21.04	10
21.05	5
21.06	6
21.07	9
21.08	5
21.09	4
21.1	5
21.11	7
21.12	8
21.13	5
21.14	3
21.15	7
21.16	8
21.17	7
21.18	5
21.19	11
21.2	5
21.21	8
21.22	3
21.23	12
21.24	11
21.25	4
21.26	9
21.27	5
21.28	7
21.29	2
21.3	8
21.31	9
21.32	2
21.33	4
21.34	5
21.35	1
21.36	7
21.37	4
21.38	4
21.39	8
21.4	7
21.41	8
21.42	7
21.43	4
21.44	7
21.45	5
21.46	4
21.47	9
21.48	7
21.49	6
21.5	7
21.51	6
21.52	6
21.53	3
21.54	4
21.55	4
21.56	7
21.57	5
21.58	5
21.59	9
21.6	9
21.61	8
21.62	5
21.63	4
21.64	8
21.65	8
21.66	6
21.67	4
21.68	13
21.69	4
21.7	6
21.71	8
21.72	8
21.73	4
21.74	4
21.75	4
21.76	10
21.77	4
21.78	6
21.79	5
21.8	7
21.81	6
21.82	7
21.83	7
21.84	5
21.85	6
21.86	4
21.87	6
21.88	8
21.89	4
21.9	6
21.91	7
21.92	3
21.93	7
21.94	8
21.95	3
21.96	8
21.97	6
21.98	12
21.99	4
22	8
22.01	5
22.02	6
22.03	7
22.04	7
22.05	6
22.06	3
22.07	4
22.08	5
22.09	8
22.1	3
22.11	7
22.12	3
22.13	8
22.14	10
22.15	7
22.16	12
22.17	6
22.18	5
22.19	6
22.2	4
22.21	4
22.22	5
22.23	12
22.24	5
22.25	8
22.26	10
22.27	9
22.28	5
22.29	10
22.3	10
22.31	5
22.32	3
22.33	5
22.34	4
22.35	9
22.36	7
22.37	5
22.38	7
22.39	7
22.4	8
22.41	5
22.42	2
22.43	4
22.44	6
22.45	7
22.46	11
22.47	7
22.48	1
22.49	10
22.5	8
22.51	9
22.52	4
22.53	4
22.54	11
22.55	5
22.56	3
22.57	6
22.58	5
22.59	6
22.6	7
22.61	6
22.62	8
22.63	6
22.64	1
22.65	8
22.66	7
22.67	5
22.68	7
22.69	7
22.7	9
22.71	11
22.72	4
22.73	4
22.74	7
22.75	6
22.76	4
22.77	6
22.78	2
22.79	5
22.8	5
22.81	5
22.82	11
22.83	4
22.84	8
22.85	7
22.86	3
22.87	12
22.88	4
22.89	6
22.9	9
22.91	3
22.92	7
22.93	10
22.94	7
22.95	4
22.96	5
22.97	5
22.98	5
22.99	3
23	9
23.01	6
23.02	6
23.03	5
23.04	5
23.05	3
23.06	5
23.07	5
23.08	4
23.09	4
23.1	4
23.11	6
23.12	7
23.13	6
23.14	10
23.15	5
23.16	6
23.17	9
23.18	10
23.19	6
23.2	3
23.21	8
23.22	4
23.23	5
23.24	6
23.25	5
23.26	2
23.27	6
23.28	6
23.29	9
23.3	6
23.31	5
23.32	6
23.33	6
23.34	5
23.35	5
23.36	8
23.37	3
23.38	6
23.39	6
23.4	9
23.41	5
23.42	7
23.43	4
23.44	7
23.45	2
23.46	11
23.47	6
23.48	3
23.49	7
23.5	1
23.51	6
23.52	7
23.53	4
23.54	7
23.55	5
23.56	3
23.57	3
23.58	5
23.59	5
23.6	7
23.61	2
23.62	8
23.63	6
23.64	13
23.65	4
23.66	3
23.67	4
23.68	2
23.69	4
23.7	2
23.71	11
23.72	5
23.73	4
23.74	4
23.75	9
23.76	8
23.77	8
23.78	4
23.79	7
23.8	4
23.81	8
23.82	3
23.83	4
23.84	8
23.85	4
23.86	7
23.87	5
23.88	7
23.89	5
23.9	5
23.91	7
23.92	5
23.93	3
23.94	4
23.95	5
23.96	4
23.97	7
23.98	10
23.99	6
24	5
24.01	7
24.02	6
24.03	5
24.04	7
24.05	5
24.06	6
24.07	3
24.08	6
24.09	9
24.1	8
24.11	7
24.12	3
24.13	8
24.14	5
24.15	6
24.16	4
24.17	7
24.18	2
24.19	6
24.2	5
24.21	3
24.22	6
24.23	1
24.24	6
24.25	6
24.26	5
24.27	5
24.28	8
24.29	7
24.3	8
24.31	6
24.32	5
24.33	6
24.34	5
24.35	4
24.36	4
24.37	5
24.38	7
24.39	7
24.4	8
24.41	9
24.42	10
24.43	6
24.44	3
24.45	8
24.46	9
24.47	9
24.48	3
24.49	6
24.5	10
24.51	11
24.52	7
24.53	4
24.54	7
24.55	10
24.56	5
24.57	4
24.58	5
24.59	3
24.6	5
24.61	6
24.62	6
24.63	9
24.64	7
24.65	6
24.66	6
24.67	5
24.68	1
24.69	4
24.7	6
24.71	5
24.72	6
24.73	10
24.74	5
24.75	7
24.76	5
24.77	9
24.78	6
24.79	6
24.8	7
24.81	6
24.82	8
24.83	6
24.84	3
24.85	6
24.86	6
24.87	4
24.88	5
24.89	6
24.9	1
24.91	11
24.92	5
24.93	8
24.94	6
24.95	5
24.96	7
24.97	4
24.98	6
24.99	6
25	5
25.01	9
25.02	8
25.03	4
25.04	2
25.05	9
25.06	7
25.07	8
25.08	6
25.09	6
25.1	6
25.11	4
25.12	10
25.13	4
25.14	2
25.15	3
25.16	1
25.17	3
25.18	6
25.19	8
25.2	5
25.21	8
25.22	15
25.23	6
25.24	4
25.25	4
25.26	6
25.27	3
25.28	7
25.29	3
25.3	8
25.31	3
25.32	7
25.33	7
25.34	9
25.35	4
25.36	4
25.37	11
25.38	9
25.39	7
25.4	8
25.41	10
25.42	4
25.43	7
25.44	6
25.45	6
25.46	5
25.47	9
25.48	8
25.49	3
25.5	4
25.51	9
25.52	4
25.53	10
25.54	3
25.55	13
25.56	7
25.57	11
25.58	6
25.59	5
25.6	8
25.61	4
25.62	9
25.63	7
25.64	5
25.65	7
25.66	11
25.67	7
25.68	4
25.69	7
25.7	4
25.71	10
25.72	7
25.73	6
25.74	6
25.75	10
25.76	9
25.77	3
25.78	8
25.79	9
25.8	12
25.81	6
25.82	6
25.83	8
25.84	8
25.85	5
25.86	7
25.87	7
25.88	10
25.89	4
25.9	5
25.91	4
25.92	11
25.93	5
25.94	9
25.95	10
25.96	4
25.97	3
25.98	6
25.99	9
26	2
26.01	7
26.02	6
26.03	9
26.04	9
26.05	7
26.06	4
26.07	4
26.08	7
26.09	10
26.1	7
26.11	6
26.12	3
26.13	4
26.14	9
26.15	4
26.16	4
26.17	5
26.18	6
26.19	4
26.2	5
26.21	8
26.22	6
26.23	8
26.24	10
26.25	8
26.26	13
26.27	6
26.28	3
26.29	12
26.3	5
26.31	4
26.32	10
26.33	8
26.34	4
26.35	8
26.36	5
26.37	4
26.38	8
26.39	8
26.4	6
26.41	5
26.42	6
26.43	3
26.44	9
26.45	4
26.46	5
26.47	9
26.48	5
26.49	6
26.5	9
26.51	5
26.52	5
26.53	5
26.54	3
26.55	4
26.56	4
26.57	7
26.58	7
26.59	6
26.6	8
26.61	8
26.62	5
26.63	5
26.64	2
26.65	6
26.66	7
26.67	7
26.68	5
26.69	10
26.7	6
26.71	3
26.72	6
26.73	5
26.74	6
26.75	4
26.76	11
26.77	7
26.78	3
26.79	4
26.8	7
26.81	6
26.82	8
26.83	5
26.84	5
26.85	9
26.86	5
26.87	5
26.88	10
26.89	9
26.9	5
26.91	10
26.92	10
26.93	9
26.94	7
26.95	14
26.96	9
26.97	9
26.98	16
26.99	22
27	27
27.01	25
27.02	32
27.03	35
27.04	27
27.05	25
27.06	30
27.07	20
27.08	21
27.09	19
27.1	16
27.11	9
27.12	14
27.13	20
27.14	8
27.15	26
27.16	13
27.17	10
27.18	16
27.19	14
27.2	13
27.21	16
27.22	16
27.23	14
27.24	17
27.25	11
27.26	16
27.27	15
27.28	8
27.29	14
27.3	13
27.31	9
27.32	9
27.33	10
27.34	12
27.35	11
27.36	10
27.37	2
27.38	7
27.39	5
27.4	7
27.41	2
27.42	3
27.43	3
27.44	3
27.45	8
27.46	5
27.47	12
27.48	10
27.49	3
27.5	6
27.51	5
27.52	6
27.53	5
27.54	2
27.55	2
27.56	7
27.57	7
27.58	8
27.59	6
27.6	5
27.61	4
27.62	6
27.63	5
27.64	5
27.65	6
27.66	4
27.67	5
27.68	7
27.69	9
27.7	7
27.71	3
27.72	3
27.73	9
27.74	3
27.75	4
27.76	5
27.77	7
27.78	10
27.79	9
27.8	4
27.81	4
27.82	6
27.83	7
27.84	9
27.85	7
27.86	4
27.87	9
27.88	4
27.89	8
27.9	3
27.91	5
27.92	3
27.93	3
27.94	5
27.95	13
27.96	6
27.97	9
27.98	10
27.99	5
28	8
28.01	5
28.02	4
28.03	5
28.04	10
28.05	5
28.06	2
28.07	4
28.08	10
28.09	5
28.1	5
28.11	5
28.12	6
28.13	13
28.14	4
28.15	6
28.16	6
28.17	10
28.18	11
28.19	8
28.2	7
28.21	10
28.22	5
28.23	8
28.24	4
28.25	5
28.26	6
28.27	7
28.28	9
28.29	3
28.3	8
28.31	5
28.32	4
28.33	9
28.34	8
28.35	7
28.36	7
28.37	10
28.38	6
28.39	9
28.4	9
28.41	4
28.42	11
28.43	6
28.44	6
28.45	11
28.46	10
28.47	4
28.48	5
28.49	5
28.5	7
28.51	6
28.52	8
28.53	7
28.54	4
28.55	8
28.56	10
28.57	5
28.58	6
28.59	4
28.6	8
28.61	12
28.62	6
28.63	9
28.64	4
28.65	2
28.66	3
28.67	9
28.68	6
28.69	6
28.7	7
28.71	9
28.72	4
28.73	10
28.74	7
28.75	5
28.76	13
28.77	6
28.78	7
28.79	9
28.8	4
28.81	5
28.82	5
28.83	5
28.84	5
28.85	9
28.86	3
28.87	10
28.88	12
28.89	10
28.9	9
28.91	3
28.92	14
28.93	7
28.94	8
28.95	8
28.96	2
28.97	9
28.98	7
28.99	7
29	5
29.01	7
29.02	5
29.03	7
29.04	7
29.05	6
29.06	8
29.07	6
29.08	4
29.09	12
29.1	10
29.11	5
29.12	7
29.13	7
29.14	5
29.15	7
29.16	9
29.17	3
29.18	6
29.19	9
29.2	7
29.21	8
29.22	6
29.23	4
29.24	6
29.25	3
29.26	5
29.27	3
29.28	4
29.29	8
29.3	5
29.31	7
29.32	6
29.33	8
29.34	4
29.35	9
29.36	7
29.37	8
29.38	12
29.39	4
29.4	7
29.41	8
29.42	8
29.43	3
29.44	8
29.45	6
29.46	5
29.47	10
29.48	5
29.49	4
29.5	9
29.51	6
29.52	10
29.53	3
29.54	6
29.55	9
29.56	7
29.57	9
29.58	6
29.59	6
29.6	6
29.61	5
29.62	5
29.63	6
29.64	4
29.65	4
29.66	6
29.67	9
29.68	5
29.69	4
29.7	3
29.71	6
29.72	9
29.73	5
29.74	4
29.75	4
29.76	3
29.77	3
29.78	5
29.79	5
29.8	2
29.81	7
29.82	3
29.83	9
29.84	5
29.85	9
29.86	7
29.87	8
29.88	4
29.89	6
29.9	6
29.91	8
29.92	10
29.93	10
29.94	6
29.95	7
29.96	6
29.97	8
29.98	4
29.99	5
30	9
30.01	7
30.02	8
30.03	5
30.04	12
30.05	4
30.06	8
30.07	6
30.08	9
30.09	6
30.1	6
30.11	4
30.12	9
30.13	7
30.14	10
30.15	6
30.16	8
30.17	5
30.18	3
30.19	4
30.2	7
30.21	7
30.22	8
30.23	5
30.24	3
30.25	7
30.26	5
30.27	15
30.28	5
30.29	6
30.3	5
30.31	5
30.32	6
30.33	4
30.34	7
30.35	8
30.36	4
30.37	8
30.38	9
30.39	9
30.4	10
30.41	6
30.42	4
30.43	9
30.44	4
30.45	4
30.46	4
30.47	7
30.48	8
30.49	2
30.5	10
30.51	7
30.52	7
30.53	7
30.54	9
30.55	7
30.56	8
30.57	3
30.58	5
30.59	5
30.6	5
30.61	3
30.62	8
30.63	6
30.64	7
30.65	4
30.66	10
30.67	5
30.68	15
30.69	3
30.7	6
30.71	2
30.72	7
30.73	8
30.74	3
30.75	2
30.76	7
30.77	7
30.78	8
30.79	5
30.8	5
30.81	3
30.82	8
30.83	11
30.84	9
30.85	7
30.86	9
30.87	6
30.88	6
30.89	6
30.9	7
30.91	8
30.92	6
30.93	5
30.94	10
30.95	3
30.96	4
30.97	7
30.98	10
30.99	9
31	8
31.01	6
31.02	8
31.03	9
31.04	7
31.05	6
31.06	8
31.07	8
31.08	13
31.09	11
31.1	5
31.11	13
31.12	12
31.13	12
31.14	13
31.15	14
31.16	6
31.17	12
31.18	19
31.19	21
31.2	25
31.21	20
31.22	26
31.23	42
31.24	32
31.25	62
31.26	64
31.27	71
31.28	106
31.29	140
31.3	195
31.31	241
31.32	303
31.33	341
31.34	399
31.35	399
31.36	386
31.37	379
31.38	318
31.39	301
31.4	258
31.41	198
31.42	178
31.43	160
31.44	148
31.45	151
31.46	134
31.47	106
31.48	124
31.49	109
31.5	123
31.51	133
31.52	152
31.53	147
31.54	130
31.55	169
31.56	160
31.57	164
31.58	149
31.59	124
31.6	117
31.61	107
31.62	94
31.63	83
31.64	94
31.65	59
31.66	70
31.67	60
31.68	42
31.69	50
31.7	47
31.71	32
31.72	27
31.73	19
31.74	17
31.75	16
31.76	24
31.77	17
31.78	21
31.79	14
31.8	13
31.81	12
31.82	9
31.83	11
31.84	11
31.85	13
31.86	11
31.87	11
31.88	11
31.89	14
31.9	12
31.91	10
31.92	4
31.93	10
31.94	7
31.95	8
31.96	7
31.97	9
31.98	3
31.99	4
32	6
32.01	11
32.02	7
32.03	11
32.04	7
32.05	8
32.06	5
32.07	12
32.08	7
32.09	5
32.1	5
32.11	8
32.12	6
32.13	7
32.14	5
32.15	6
32.16	10
32.17	6
32.18	7
32.19	4
32.2	9
32.21	8
32.22	9
32.23	8
32.24	3
32.25	8
32.26	7
32.27	7
32.28	8
32.29	8
32.3	5
32.31	2
32.32	6
32.33	8
32.34	2
32.35	7
32.36	10
32.37	5
32.38	4
32.39	10
32.4	2
32.41	9
32.42	9
32.43	4
32.44	4
32.45	7
32.46	6
32.47	4
32.48	5
32.49	11
32.5	8
32.51	6
32.52	5
32.53	4
32.54	7
32.55	4
32.56	5
32.57	9
32.58	9
32.59	8
32.6	9
32.61	7
32.62	6
32.63	4
32.64	5
32.65	9
32.66	8
32.67	3
32.68	8
32.69	7
32.7	5
32.71	6
32.72	8
32.73	6
32.74	6
32.75	9
32.76	6
32.77	10
32.78	4
32.79	8
32.8	7
32.81	9
32.82	7
32.83	5
32.84	9
32.85	10
32.86	7
32.87	9
32.88	9
32.89	5
32.9	3
32.91	5
32.92	12
32.93	2
32.94	5
32.95	5
32.96	9
32.97	7
32.98	10
32.99	3
33	7
33.01	10
33.02	11
33.03	3
33.04	6
33.05	10
33.06	7
33.07	6
33.08	4
33.09	7
33.1	9
33.11	9
33.12	5
33.13	8
33.14	9
33.15	12
33.16	9
33.17	2
33.18	9
33.19	4
33.2	6
33.21	9
33.22	8
33.23	3
33.24	5
33.25	9
33.26	4
33.27	6
33.28	9
33.29	8
33.3	4
33.31	8
33.32	7
33.33	6
33.34	3
33.35	11
33.36	4
33.37	4
33.38	5
33.39	7
33.4	11
33.41	8
33.42	7
33.43	8
33.44	8
33.45	8
33.46	4
33.47	6
33.48	8
33.49	4
33.5	6
33.51	9
33.52	4
33.53	6
33.54	9
33.55	7
33.56	5
33.57	11
33.58	7
33.59	2
33.6	5
33.61	3
33.62	3
33.63	5
33.64	5
33.65	7
33.66	4
33.67	1
33.68	5
33.69	8
33.7	7
33.71	5
33.72	14
33.73	5
33.74	7
33.75	5
33.76	6
33.77	5
33.78	7
33.79	5
33.8	5
33.81	5
33.82	7
33.83	7
33.84	5
33.85	10
33.86	6
33.87	5
33.88	15
33.89	4
33.9	9
33.91	9
33.92	6
33.93	2
33.94	6
33.95	6
33.96	8
33.97	5
33.98	5
33.99	4
34	8
34.01	7
34.02	4
34.03	5
34.04	8
34.05	2
34.06	5
34.07	2
34.08	1
34.09	8
34.1	6
34.11	3
34.12	9
34.13	2
34.14	7
34.15	4
34.16	5
34.17	4
34.18	7
34.19	6
34.2	5
34.21	6
34.22	9
34.23	8
34.24	7
34.25	4
34.26	7
34.27	5
34.28	7
34.29	3
34.3	7
34.31	9
34.32	4
34.33	5
34.34	9
34.35	5
34.36	4
34.37	6
34.38	4
34.39	9
34.4	7
34.41	3
34.42	2
34.43	1
34.44	7
34.45	8
34.46	5
34.47	4
34.48	10
34.49	9
34.5	7
34.51	8
34.52	5
34.53	7
34.54	10
34.55	7
34.56	6
34.57	6
34.58	8
34.59	16
34.6	11
34.61	6
34.62	5
34.63	5
34.64	4
34.65	2
34.66	6
34.67	8
34.68	5
34.69	4
34.7	6
34.71	6
34.72	5
34.73	1
34.74	5
34.75	5
34.76	8
34.77	12
34.78	5
34.79	8
34.8	6
34.81	4
34.82	5
34.83	7
34.84	2
34.85	8
34.86	4
34.87	5
34.88	5
34.89	6
34.9	4
34.91	3
34.92	9
34.93	13
34.94	8
34.95	9
34.96	7
34.97	7
34.98	7
34.99	8
35	3
35.01	10
35.02	7
35.03	4
35.04	4
35.05	10
35.06	10
35.07	4
35.08	7
35.09	4
35.1	5
35.11	8
35.12	6
35.13	4
35.14	1
35.15	4
35.16	10
35.17	10
35.18	5
35.19	4
35.2	7
35.21	4
35.22	5
35.23	5
35.24	9
35.25	1
35.26	8
35.27	4
35.28	5
35.29	8
35.3	7
35.31	4
35.32	4
35.33	6
35.34	8
35.35	5
35.36	7
35.37	4
35.38	5
35.39	1
35.4	6
35.41	5
35.42	9
35.43	5
35.44	7
35.45	10
35.46	4
35.47	8
35.48	10
35.49	1
35.5	8
35.51	8
35.52	11
35.53	5
35.54	2
35.55	4
35.56	3
35.57	3
35.58	7
35.59	7
35.6	6
35.61	10
35.62	4
35.63	4
35.64	3
35.65	9
35.66	3
35.67	3
35.68	13
35.69	6
35.7	8
35.71	9
35.72	9
35.73	7
35.74	5
35.75	11
35.76	4
35.77	4
35.78	6
35.79	8
35.8	7
35.81	9
35.82	8
35.83	5
35.84	4
35.85	6
35.86	2
35.87	3
35.88	4
35.89	10
35.9	6
35.91	4
35.92	7
35.93	6
35.94	5
35.95	8
35.96	6
35.97	9
35.98	9
35.99	8
36	6
36.01	6
36.02	9
36.03	8
36.04	2
36.05	11
36.06	12
36.07	7
36.08	6
36.09	7
36.1	9
36.11	7
36.12	7
36.13	5
36.14	4
36.15	7
36.16	4
36.17	7
36.18	4
36.19	9
36.2	6
36.21	12
36.22	9
36.23	5
36.24	7
36.25	3
36.26	5
36.27	6
36.28	6
36.29	3
36.3	5
36.31	8
36.32	8
36.33	4
36.34	4
36.35	9
36.36	6
36.37	7
36.38	6
36.39	7
36.4	6
36.41	3
36.42	6
36.43	10
36.44	3
36.45	3
36.46	6
36.47	4
36.48	2
36.49	4
36.5	4
36.51	6
36.52	2
36.53	8
36.54	7
36.55	11
36.56	7
36.57	10
36.58	9
36.59	3
36.6	9
36.61	9
36.62	7
36.63	6
36.64	9
36.65	11
36.66	5
36.67	8
36.68	4
36.69	6
36.7	7
36.71	10
36.72	8
36.73	8
36.74	10
36.75	9
36.76	7
36.77	6
36.78	5
36.79	8
36.8	7
36.81	5
36.82	11
36.83	4
36.84	5
36.85	6
36.86	5
36.87	5
36.88	3
36.89	6
36.9	7
36.91	4
36.92	2
36.93	9
36.94	3
36.95	6
36.96	7
36.97	7
36.98	4
36.99	8
37	9
37.01	2
37.02	6
37.03	8
37.04	8
37.05	6
37.06	4
37.07	13
37.08	5
37.09	6
37.1	10
37.11	9
37.12	4
37.13	12
37.14	6
37.15	6
37.16	5
37.17	4
37.18	8
37.19	3
37.2	6
37.21	5
37.22	7
37.23	6
37.24	6
37.25	7
37.26	8
37.27	7
37.28	8
37.29	6
37.3	8
37.31	6
37.32	4
37.33	5
37.34	7
37.35	7
37.36	3
37.37	4
37.38	5
37.39	7
37.4	1
37.41	4
37.42	5
37.43	7
37.44	6
37.45	7
37.46	6
37.47	9
37.48	11
37.49	5
37.5	10
37.51	8
37.52	6
37.53	8
37.54	4
37.55	9
37.56	4
37.57	6
37.58	5
37.59	6
37.6	2
37.61	5
37.62	4
37.63	3
37.64	7
37.65	4
37.66	5
37.67	7
37.68	5
37.69	6
37.7	6
37.71	3
37.72	2
37.73	5
37.74	5
37.75	8
37.76	5
37.77	3
37.78	8
37.79	5
37.8	4
37.81	5
37.82	6
37.83	7
37.84	7
37.85	7
37.86	6
37.87	10
37.88	4
37.89	8
37.9	6
37.91	3
37.92	7
37.93	7
37.94	3
37.95	9
37.96	9
37.97	7
37.98	5
37.99	8
38	4
38.01	9
38.02	6
38.03	7
38.04	3
38.05	7
38.06	1
38.07	6
38.08	6
38.09	4
38.1	6
38.11	5
38.12	8
38.13	5
38.14	6
38.15	5
38.16	8
38.17	11
38.18	3
38.19	4
38.2	7
38.21	4
38.22	5
38.23	7
38.24	8
38.25	5
38.26	6
38.27	8
38.28	6
38.29	7
38.3	7
38.31	4
38.32	5
38.33	2
38.34	5
38.35	10
38.36	9
38.37	4
38.38	6
38.39	8
38.4	6
38.41	6
38.42	6
38.43	11
38.44	10
38.45	6
38.46	4
38.47	6
38.48	4
38.49	6
38.5	4
38.51	3
38.52	5
38.53	5
38.54	7
38.55	11
38.56	4
38.57	6
38.58	8
38.59	9
38.6	8
38.61	4
38.62	3
38.63	3
38.64	4
38.65	7
38.66	4
38.67	4
38.68	5
38.69	5
38.7	2
38.71	8
38.72	6
38.73	8
38.74	6
38.75	7
38.76	6
38.77	4
38.78	8
38.79	6
38.8	9
38.81	4
38.82	6
38.83	2
38.84	5
38.85	2
38.86	8
38.87	5
38.88	5
38.89	8
38.9	7
38.91	3
38.92	6
38.93	6
38.94	10
38.95	6
38.96	4
38.97	7
38.98	6
38.99	9
39	7
39.01	5
39.02	6
39.03	5
39.04	6
39.05	5
39.06	4
39.07	7
39.08	9
39.09	4
39.1	4
39.11	3
39.12	8
39.13	5
39.14	3
39.15	2
39.16	6
39.17	10
39.18	6
39.19	8
39.2	4
39.21	2
39.22	6
39.23	2
39.24	5
39.25	2
39.26	5
39.27	6
39.28	4
39.29	5
39.3	11
39.31	7
39.32	6
39.33	8
39.34	4
39.35	6
39.36	9
39.37	9
39.38	7
39.39	3
39.4	8
39.41	6
39.42	6
39.43	2
39.44	3
39.45	3
39.46	6
39.47	2
39.48	2
39.49	5
39.5	10
39.51	7
39.52	5
39.53	3
39.54	11
39.55	6
39.56	0
39.57	2
39.58	6
39.59	5
39.6	10
39.61	8
39.62	7
39.63	6
39.64	9
39.65	4
39.66	8
39.67	13
39.68	9
39.69	4
39.7	6
39.71	9
39.72	11
39.73	5
39.74	8
39.75	9
39.76	6
39.77	8
39.78	3
39.79	7
39.8	6
39.81	9
39.82	5
39.83	4
39.84	3
39.85	5
39.86	8
39.87	2
39.88	6
39.89	7
39.9	8
39.91	2
39.92	5
39.93	4
39.94	7
39.95	8
39.96	4
39.97	5
39.98	6
39.99	7
40	2
40.01	9
40.02	9
40.03	8
40.04	6
40.05	5
40.06	7
40.07	5
40.08	6
40.09	7
40.1	7
40.11	6
40.12	11
40.13	3
40.14	9
40.15	6
40.16	5
40.17	4
40.18	7
40.19	9
40.2	3
40.21	9
40.22	4
40.23	3
40.24	5
40.25	7
40.26	9
40.27	7
40.28	5
40.29	3
40.3	7
40.31	8
40.32	5
40.33	5
40.34	7
40.35	2
40.36	3
40.37	5
40.38	5
40.39	4
40.4	5
40.41	6
40.42	7
40.43	4
40.44	6
40.45	6
40.46	8
40.47	1
40.48	2
40.49	7
40.5	4
40.51	6
40.52	15
40.53	5
40.54	10
40.55	11
40.56	3
40.57	7
40.58	6
40.59	9
40.6	4
40.61	7
40.62	5
40.63	4
40.64	6
40.65	2
40.66	9
40.67	4
40.68	6
40.69	3
40.7	4
40.71	7
40.72	9
40.73	5
40.74	2
40.75	2
40.76	8
40.77	7
40.78	9
40.79	7
40.8	10
40.81	8
40.82	6
40.83	5
40.84	7
40.85	7
40.86	7
40.87	5
40.88	3
40.89	5
40.9	4
40.91	4
40.92	4
40.93	10
40.94	12
40.95	3
40.96	7
40.97	9
40.98	3
40.99	6
41	5
41.01	11
41.02	4
41.03	7
41.04	5
41.05	8
41.06	1
41.07	4
41.08	8
41.09	4
41.1	6
41.11	5
41.12	4
41.13	11
41.14	5
41.15	6
41.16	5
41.17	12
41.18	6
41.19	5
41.2	7
41.21	8
41.22	10
41.23	7
41.24	7
41.25	4
41.26	6
41.27	3
41.28	5
41.29	4
41.3	3
41.31	9
41.32	8
41.33	8
41.34	7
41.35	5
41.36	9
41.37	11
41.38	7
41.39	6
41.4	7
41.41	6
41.42	2
41.43	12
41.44	3
41.45	4
41.46	4
41.47	5
41.48	6
41.49	8
41.5	5
41.51	8
41.52	6
41.53	7
41.54	4
41.55	6
41.56	5
41.57	5
41.58	6
41.59	10
41.6	3
41.61	8
41.62	3
41.63	3
41.64	6
41.65	9
41.66	10
41.67	10
41.68	5
41.69	12
41.7	9
41.71	8
41.72	7
41.73	5
41.74	4
41.75	5
41.76	9
41.77	11
41.78	10
41.79	10
41.8	7
41.81	5
41.82	6
41.83	9
41.84	8
41.85	7
41.86	7
41.87	9
41.88	4
41.89	7
41.9	3
41.91	6
41.92	7
41.93	10
41.94	10
41.95	8
41.96	6
41.97	6
41.98	5
41.99	4
42	5
42.01	7
42.02	7
42.03	7
42.04	5
42.05	6
42.06	7
42.07	4
42.08	5
42.09	10
42.1	6
42.11	6
42.12	4
42.13	7
42.14	3
42.15	4
42.16	7
42.17	6
42.18	8
42.19	4
42.2	4
42.21	6
42.22	9
42.23	9
42.24	11
42.25	4
42.26	10
42.27	4
42.28	11
42.29	6
42.3	8
42.31	4
42.32	5
42.33	4
42.34	5
42.35	8
42.36	4
42.37	5
42.38	9
42.39	14
42.4	7
42.41	8
42.42	6
42.43	6
42.44	2
42.45	5
42.46	9
42.47	1
42.48	11
42.49	1
42.5	5
42.51	6
42.52	8
42.53	3
42.54	11
42.55	7
42.56	11
42.57	4
42.58	2
42.59	5
42.6	8
42.61	7
42.62	9
42.63	7
42.64	4
42.65	6
42.66	6
42.67	4
42.68	8
42.69	2
42.7	6
42.71	10
42.72	4
42.73	9
42.74	6
42.75	6
42.76	5
42.77	8
42.78	5
42.79	7
42.8	1
42.81	7
42.82	5
42.83	5
42.84	10
42.85	9
42.86	3
42.87	11
42.88	8
42.89	6
42.9	6
42.91	6
42.92	9
42.93	6
42.94	5
42.95	6
42.96	9
42.97	7
42.98	7
42.99	2
43	7
43.01	5
43.02	5
43.03	6
43.04	6
43.05	3
43.06	11
43.07	7
43.08	3
43.09	7
43.1	8
43.11	7
43.12	6
43.13	10
43.14	10
43.15	4
43.16	0
43.17	4
43.18	12
43.19	5
43.2	6
43.21	7
43.22	7
43.23	5
43.24	10
43.25	8
43.26	6
43.27	5
43.28	8
43.29	10
43.3	8
43.31	10
43.32	6
43.33	5
43.34	3
43.35	6
43.36	8
43.37	8
43.38	4
43.39	7
43.4	6
43.41	7
43.42	6
43.43	5
43.44	10
43.45	8
43.46	8
43.47	7
43.48	6
43.49	2
43.5	11
43.51	4
43.52	10
43.53	11
43.54	5
43.55	6
43.56	7
43.57	1
43.58	5
43.59	7
43.6	8
43.61	9
43.62	9
43.63	6
43.64	8
43.65	8
43.66	8
43.67	10
43.68	12
43.69	9
43.7	4
43.71	8
43.72	4
43.73	8
43.74	6
43.75	5
43.76	2
43.77	9
43.78	5
43.79	7
43.8	7
43.81	5
43.82	2
43.83	11
43.84	6
43.85	6
43.86	6
43.87	10
43.88	8
43.89	6
43.9	4
43.91	7
43.92	10
43.93	13
43.94	7
43.95	7
43.96	8
43.97	5
43.98	7
43.99	8
44	9
44.01	7
44.02	6
44.03	8
44.04	7
44.05	6
44.06	6
44.07	9
44.08	4
44.09	6
44.1	10
44.11	10
44.12	4
44.13	6
44.14	7
44.15	5
44.16	8
44.17	3
44.18	8
44.19	10
44.2	3
44.21	3
44.22	11
44.23	7
44.24	7
44.25	7
44.26	7
44.27	9
44.28	7
44.29	9
44.3	8
44.31	5
44.32	10
44.33	14
44.34	10
44.35	7
44.36	11
44.37	7
44.38	11
44.39	8
44.4	5
44.41	11
44.42	4
44.43	7
44.44	7
44.45	5
44.46	8
44.47	5
44.48	1
44.49	3
44.5	2
44.51	2
44.52	7
44.53	2
44.54	5
44.55	4
44.56	5
44.57	7
44.58	5
44.59	7
44.6	4
44.61	6
44.62	13
44.63	5
44.64	9
44.65	5
44.66	8
44.67	7
44.68	8
44.69	8
44.7	8
44.71	12
44.72	8
44.73	5
44.74	8
44.75	9
44.76	11
44.77	16
44.78	4
44.79	11
44.8	10
44.81	11
44.82	10
44.83	11
44.84	16
44.85	13
44.86	12
44.87	20
44.88	23
44.89	20
44.9	12
44.91	24
44.92	39
44.93	40
44.94	52
44.95	51
44.96	65
44.97	85
44.98	109
44.99	111
45	140
45.01	125
45.02	162
45.03	138
45.04	145
45.05	150
45.06	147
45.07	137
45.08	97
45.09	98
45.1	85
45.11	75
45.12	73
45.13	69
45.14	65
45.15	55
45.16	56
45.17	52
45.18	38
45.19	40
45.2	47
45.21	54
45.22	63
45.23	69
45.24	52
45.25	56
45.26	69
45.27	71
45.28	84
45.29	88
45.3	82
45.31	74
45.32	79
45.33	66
45.34	64
45.35	58
45.36	53
45.37	54
45.38	46
45.39	44
45.4	39
45.41	33
45.42	36
45.43	53
45.44	26
45.45	22
45.46	30
45.47	28
45.48	32
45.49	22
45.5	22
45.51	15
45.52	19
45.53	19
45.54	16
45.55	14
45.56	14
45.57	14
45.58	11
45.59	12
45.6	14
45.61	9
45.62	8
45.63	9
45.64	9
45.65	9
45.66	5
45.67	9
45.68	6
45.69	11
45.7	6
45.71	11
45.72	10
45.73	13
45.74	6
45.75	2
45.76	11
45.77	6
45.78	12
45.79	10
45.8	8
45.81	8
45.82	11
45.83	9
45.84	10
45.85	3
45.86	6
45.87	6
45.88	6
45.89	16
45.9	5
45.91	9
45.92	11
45.93	7
45.94	9
45.95	5
45.96	5
45.97	7
45.98	10
45.99	7
46	4
46.01	6
46.02	6
46.03	5
46.04	5
46.05	4
46.06	10
46.07	9
46.08	5
46.09	7
46.1	13
46.11	11
46.12	8
46.13	4
46.14	5
46.15	7
46.16	6
46.17	8
46.18	3
46.19	5
46.2	10
46.21	6
46.22	3
46.23	9
46.24	7
46.25	6
46.26	7
46.27	10
46.28	6
46.29	4
46.3	4
46.31	6
46.32	5
46.33	5
46.34	7
46.35	7
46.36	5
46.37	11
46.38	8
46.39	6
46.4	4
46.41	4
46.42	2
46.43	12
46.44	10
46.45	6
46.46	7
46.47	7
46.48	8
46.49	10
46.5	5
46.51	5
46.52	1
46.53	6
46.54	3
46.55	7
46.56	9
46.57	4
46.58	6
46.59	7
46.6	6
46.61	8
46.62	6
46.63	2
46.64	13
46.65	9
46.66	5
46.67	4
46.68	9
46.69	6
46.7	3
46.71	6
46.72	10
46.73	6
46.74	3
46.75	9
46.76	10
46.77	4
46.78	10
46.79	7
46.8	9
46.81	8
46.82	8
46.83	9
46.84	6
46.85	9
46.86	9
46.87	4
46.88	7
46.89	9
46.9	8
46.91	6
46.92	10
46.93	8
46.94	10
46.95	6
46.96	5
46.97	10
46.98	4
46.99	5
47	6
47.01	4
47.02	4
47.03	4
47.04	9
47.05	8
47.06	5
47.07	3
47.08	3
47.09	3
47.1	5
47.11	13
47.12	3
47.13	7
47.14	5
47.15	3
47.16	3
47.17	7
47.18	9
47.19	2
47.2	5
47.21	8
47.22	9
47.23	4
47.24	9
47.25	6
47.26	15
47.27	6
47.28	10
47.29	8
47.3	4
47.31	7
47.32	7
47.33	10
47.34	3
47.35	4
47.36	3
47.37	4
47.38	5
47.39	5
47.4	8
47.41	12
47.42	7
47.43	4
47.44	5
47.45	9
47.46	9
47.47	7
47.48	4
47.49	7
47.5	3
47.51	5
47.52	5
47.53	5
47.54	4
47.55	11
47.56	10
47.57	8
47.58	6
47.59	4
47.6	3
47.61	7
47.62	3
47.63	8
47.64	5
47.65	2
47.66	6
47.67	1
47.68	4
47.69	9
47.7	3
47.71	2
47.72	4
47.73	6
47.74	5
47.75	6
47.76	3
47.77	8
47.78	10
47.79	1
47.8	9
47.81	8
47.82	5
47.83	8
47.84	5
47.85	5
47.86	5
47.87	5
47.88	6
47.89	7
47.9	6
47.91	8
47.92	5
47.93	8
47.94	10
47.95	7
47.96	5
47.97	3
47.98	5
47.99	5
48	8
48.01	8
48.02	4
48.03	8
48.04	6
48.05	4
48.06	6
48.07	3
48.08	4
48.09	6
48.1	7
48.11	5
48.12	3
48.13	7
48.14	1
48.15	9
48.16	3
48.17	11
48.18	5
48.19	7
48.2	6
48.21	7
48.22	5
48.23	2
48.24	9
48.25	7
48.26	5
48.27	4
48.28	6
48.29	6
48.3	2
48.31	5
48.32	8
48.33	5
48.34	10
48.35	7
48.36	8
48.37	10
48.38	9
48.39	7
48.4	6
48.41	8
48.42	15
48.43	5
48.44	3
48.45	9
48.46	7
48.47	5
48.48	6
48.49	3
48.5	6
48.51	9
48.52	7
48.53	6
48.54	6
48.55	8
48.56	8
48.57	6
48.58	5
48.59	9
48.6	6
48.61	8
48.62	8
48.63	5
48.64	9
48.65	7
48.66	2
48.67	3
48.68	4
48.69	7
48.7	8
48.71	6
48.72	8
48.73	7
48.74	7
48.75	3
48.76	13
48.77	3
48.78	9
48.79	7
48.8	6
48.81	8
48.82	7
48.83	9
48.84	7
48.85	9
48.86	6
48.87	2
48.88	7
48.89	8
48.9	6
48.91	9
48.92	7
48.93	1
48.94	9
48.95	12
48.96	9
48.97	11
48.98	7
48.99	6
49	4
49.01	5
49.02	6
49.03	9
49.04	6
49.05	5
49.06	4
49.07	7
49.08	7
49.09	6
49.1	5
49.11	4
49.12	6
49.13	8
49.14	7
49.15	2
49.16	8
49.17	6
49.18	8
49.19	10
49.2	1
49.21	10
49.22	8
49.23	5
49.24	8
49.25	8
49.26	4
49.27	4
49.28	14
49.29	7
49.3	8
49.31	3
49.32	6
49.33	9
49.34	7
49.35	9
49.36	9
49.37	5
49.38	9
49.39	3
49.4	9
49.41	6
49.42	9
49.43	6
49.44	3
49.45	7
49.46	5
49.47	6
49.48	6
49.49	5
49.5	6
49.51	6
49.52	8
49.53	10
49.54	6
49.55	10
49.56	5
49.57	8
49.58	5
49.59	7
49.6	7
49.61	8
49.62	9
49.63	3
49.64	8
49.65	7
49.66	7
49.67	8
49.68	4
49.69	8
49.7	3
49.71	6
49.72	7
49.73	6
49.74	5
49.75	10
49.76	9
49.77	3
49.78	4
49.79	8
49.8	10
49.81	2
49.82	7
49.83	6
49.84	6
49.85	8
49.86	3
49.87	8
49.88	7
49.89	4
49.9	6
49.91	6
49.92	5
49.93	4
49.94	4
49.95	4
49.96	4
49.97	7
49.98	7
49.99	4
50	3
50.01	6
50.02	1
50.03	5
50.04	6
50.05	1
50.06	5
50.07	4
50.08	3
50.09	7
50.1	5
50.11	6
50.12	9
50.13	1
50.14	5
50.15	1
50.16	6
50.17	8
50.18	6
50.19	2
50.2	7
50.21	10
50.22	3
50.23	10
50.24	15
50.25	7
50.26	6
50.27	7
50.28	6
50.29	7
50.3	8
50.31	6
50.32	6
50.33	3
50.34	7
50.35	1
50.36	12
50.37	7
50.38	6
50.39	7
50.4	6
50.41	10
50.42	8
50.43	3
50.44	9
50.45	5
50.46	4
50.47	8
50.48	6
50.49	5
50.5	10
50.51	3
50.52	6
50.53	3
50.54	5
50.55	7
50.56	7
50.57	6
50.58	9
50.59	4
50.6	5
50.61	4
50.62	4
50.63	4
50.64	7
50.65	7
50.66	7
50.67	3
50.68	3
50.69	2
50.7	8
50.71	5
50.72	6
50.73	10
50.74	2
50.75	6
50.76	8
50.77	9
50.78	3
50.79	11
50.8	5
50.81	8
50.82	5
50.83	5
50.84	5
50.85	6
50.86	3
50.87	5
50.88	4
50.89	7
50.9	5
50.91	2
50.92	3
50.93	7
50.94	3
50.95	10
50.96	6
50.97	6
50.98	9
50.99	4
51	7
51.01	1
51.02	2
51.03	4
51.04	8
51.05	9
51.06	4
51.07	5
51.08	8
51.09	9
51.1	5
51.11	3
51.12	5
51.13	7
51.14	7
51.15	7
51.16	6
51.17	5
51.18	8
51.19	5
51.2	4
51.21	9
51.22	5
51.23	5
51.24	7
51.25	8
51.26	10
51.27	4
51.28	7
51.29	12
51.3	7
51.31	5
51.32	6
51.33	7
51.34	4
51.35	3
51.36	4
51.37	12
51.38	8
51.39	4
51.4	3
51.41	6
51.42	7
51.43	5
51.44	4
51.45	6
51.46	2
51.47	11
51.48	7
51.49	4
51.5	9
51.51	7
51.52	9
51.53	9
51.54	3
51.55	4
51.56	5
51.57	7
51.58	5
51.59	7
51.6	5
51.61	7
51.62	6
51.63	10
51.64	7
51.65	8
51.66	8
51.67	5
51.68	8
51.69	6
51.7	0
51.71	7
51.72	6
51.73	6
51.74	3
51.75	10
51.76	5
51.77	7
51.78	6
51.79	7
51.8	10
51.81	4
51.82	3
51.83	4
51.84	6
51.85	7
51.86	5
51.87	7
51.88	6
51.89	6
51.9	5
51.91	2
51.92	3
51.93	12
51.94	6
51.95	7
51.96	7
51.97	9
51.98	4
51.99	7
52	3
52.01	3
52.02	3
52.03	9
52.04	4
52.05	8
52.06	3
52.07	3
52.08	5
52.09	6
52.1	5
52.11	7
52.12	5
52.13	5
52.14	7
52.15	6
52.16	9
52.17	11
52.18	6
52.19	8
52.2	2
52.21	10
52.22	4
52.23	8
52.24	6
52.25	8
52.26	8
52.27	2
52.28	7
52.29	5
52.3	4
52.31	6
52.32	5
52.33	8
52.34	2
52.35	6
52.36	3
52.37	8
52.38	8
52.39	5
52.4	4
52.41	6
52.42	7
52.43	4
52.44	5
52.45	6
52.46	4
52.47	6
52.48	6
52.49	1
52.5	9
52.51	9
52.52	2
52.53	9
52.54	5
52.55	3
52.56	6
52.57	6
52.58	2
52.59	7
52.6	3
52.61	6
52.62	8
52.63	8
52.64	4
52.65	10
52.66	5
52.67	9
52.68	2
52.69	5
52.7	10
52.71	7
52.72	5
52.73	10
52.74	4
52.75	6
52.76	4
52.77	5
52.78	8
52.79	4
52.8	5
52.81	4
52.82	2
52.83	3
52.84	8
52.85	2
52.86	5
52.87	7
52.88	6
52.89	5
52.9	4
52.91	4
52.92	9
52.93	5
52.94	7
52.95	6
52.96	5
52.97	8
52.98	10
52.99	9
53	4
53.01	6
53.02	3
53.03	6
53.04	3
53.05	5
53.06	9
53.07	7
53.08	7
53.09	7
53.1	6
53.11	7
53.12	6
53.13	6
53.14	10
53.15	3
53.16	4
53.17	4
53.18	4
53.19	6
53.2	6
53.21	11
53.22	7
53.23	5
53.24	8
53.25	8
53.26	10
53.27	9
53.28	10
53.29	9
53.3	9
53.31	3
53.32	7
53.33	5
53.34	8
53.35	14
53.36	11
53.37	6
53.38	4
53.39	10
53.4	6
53.41	12
53.42	9
53.43	11
53.44	11
53.45	13
53.46	14
53.47	9
53.48	7
53.49	5
53.5	10
53.51	9
53.52	9
53.53	6
53.54	6
53.55	13
53.56	13
53.57	12
53.58	7
53.59	12
53.6	7
53.61	8
53.62	7
53.63	5
53.64	8
53.65	5
53.66	9
53.67	7
53.68	5
53.69	5
53.7	8
53.71	11
53.72	10
53.73	8
53.74	9
53.75	8
53.76	9
53.77	8
53.78	8
53.79	11
53.8	8
53.81	7
53.82	3
53.83	8
53.84	15
53.85	3
53.86	5
53.87	12
53.88	11
53.89	10
53.9	9
53.91	5
53.92	6
53.93	7
53.94	1
53.95	6
53.96	7
53.97	10
53.98	7
53.99	6
54	5
54.01	5
54.02	3
54.03	8
54.04	7
54.05	13
54.06	7
54.07	2
54.08	7
54.09	7
54.1	9
54.11	8
54.12	6
54.13	8
54.14	6
54.15	9
54.16	4
54.17	10
54.18	13
54.19	8
54.2	5
54.21	5
54.22	8
54.23	4
54.24	3
54.25	9
54.26	10
54.27	4
54.28	5
54.29	7
54.3	4
54.31	2
54.32	4
54.33	6
54.34	1
54.35	4
54.36	8
54.37	4
54.38	8
54.39	2
54.4	3
54.41	6
54.42	3
54.43	5
54.44	6
54.45	5
54.46	3
54.47	6
54.48	5
54.49	8
54.5	8
54.51	7
54.52	11
54.53	8
54.54	6
54.55	3
54.56	2
54.57	7
54.58	4
54.59	10
54.6	6
54.61	6
54.62	3
54.63	9
54.64	8
54.65	3
54.66	11
54.67	8
54.68	2
54.69	5
54.7	5
54.71	6
54.72	7
54.73	6
54.74	6
54.75	4
54.76	1
54.77	4
54.78	9
54.79	8
54.8	5
54.81	7
54.82	5
54.83	5
54.84	6
54.85	8
54.86	4
54.87	11
54.88	6
54.89	5
54.9	2
54.91	6
54.92	10
54.93	4
54.94	4
54.95	4
54.96	6
54.97	10
54.98	4
54.99	9
55	4
55.01	6
55.02	9
55.03	6
55.04	6
55.05	5
55.06	6
55.07	4
55.08	9
55.09	3
55.1	7
55.11	8
55.12	7
55.13	7
55.14	5
55.15	8
55.16	4
55.17	6
55.18	6
55.19	7
55.2	8
55.21	9
55.22	8
55.23	4
55.24	7
55.25	8
55.26	7
55.27	4
55.28	9
55.29	7
55.3	7
55.31	8
55.32	8
55.33	7
55.34	3
55.35	11
55.36	2
55.37	3
55.38	7
55.39	5
55.4	7
55.41	1
55.42	8
55.43	3
55.44	4
55.45	7
55.46	5
55.47	6
55.48	4
55.49	6
55.5	11
55.51	2
55.52	2
55.53	10
55.54	13
55.55	10
55.56	7
55.57	6
55.58	5
55.59	6
55.6	10
55.61	5
55.62	10
55.63	9
55.64	4
55.65	5
55.66	11
55.67	7
55.68	4
55.69	8
55.7	5
55.71	10
55.72	5
55.73	6
55.74	4
55.75	10
55.76	8
55.77	5
55.78	6
55.79	9
55.8	10
55.81	14
55.82	4
55.83	9
55.84	10
55.85	14
55.86	14
55.87	11
55.88	14
55.89	17
55.9	25
55.91	21
55.92	22
55.93	35
55.94	32
55.95	22
55.96	25
55.97	28
55.98	37
55.99	49
56	42
56.01	35
56.02	35
56.03	40
56.04	30
56.05	31
56.06	31
56.07	26
56.08	35
56.09	23
56.1	21
56.11	23
56.12	29
56.13	27
56.14	19
56.15	15
56.16	14
56.17	12
56.18	13
56.19	14
56.2	11
56.21	16
56.22	22
56.23	12
56.24	21
56.25	19
56.26	17
56.27	25
56.28	24
56.29	25
56.3	27
56.31	19
56.32	30
56.33	28
56.34	30
56.35	34
56.36	18
56.37	19
56.38	24
56.39	17
56.4	10
56.41	14
56.42	10
56.43	11
56.44	12
56.45	10
56.46	20
56.47	20
56.48	14
56.49	15
56.5	13
56.51	7
56.52	15
56.53	10
56.54	11
56.55	8
56.56	8
56.57	10
56.58	7
56.59	11
56.6	9
56.61	12
56.62	7
56.63	4
56.64	7
56.65	13
56.66	7
56.67	10
56.68	7
56.69	6
56.7	6
56.71	9
56.72	9
56.73	2
56.74	7
56.75	10
56.76	11
56.77	5
56.78	11
56.79	8
56.8	4
56.81	3
56.82	3
56.83	4
56.84	9
56.85	5
56.86	10
56.87	5
56.88	6
56.89	9
56.9	3
56.91	3
56.92	5
56.93	5
56.94	7
56.95	4
56.96	10
56.97	8
56.98	7
56.99	6
57	5
57.01	4
57.02	10
57.03	3
57.04	6
57.05	9
57.06	5
57.07	6
57.08	2
57.09	8
57.1	5
57.11	7
57.12	7
57.13	5
57.14	8
57.15	10
57.16	1
57.17	8
57.18	6
57.19	3
57.2	6
57.21	9
57.22	9
57.23	9
57.24	1
57.25	8
57.26	6
57.27	10
57.28	5
57.29	4
57.3	2
57.31	3
57.32	2
57.33	8
57.34	9
57.35	5
57.36	5
57.37	8
57.38	4
57.39	8
57.4	5
57.41	8
57.42	4
57.43	6
57.44	4
57.45	6
57.46	4
57.47	4
57.48	7
57.49	5
57.5	5
57.51	7
57.52	8
57.53	8
57.54	5
57.55	7
57.56	4
57.57	3
57.58	5
57.59	5
57.6	10
57.61	4
57.62	2
57.63	4
57.64	3
57.65	9
57.66	5
57.67	5
57.68	7
57.69	5
57.7	3
57.71	4
57.72	7
57.73	7
57.74	3
57.75	7
57.76	2
57.77	7
57.78	3
57.79	6
57.8	2
57.81	9
57.82	3
57.83	8
57.84	2
57.85	5
57.86	4
57.87	3
57.88	0
57.89	8
57.9	4
57.91	5
57.92	3
57.93	11
57.94	5
57.95	7
57.96	5
57.97	4
57.98	5
57.99	6
58	7
58.01	8
58.02	7
58.03	5
58.04	9
58.05	7
58.06	5
58.07	8
58.08	7
58.09	7
58.1	4
58.11	5
58.12	5
58.13	3
58.14	6
58.15	7
58.16	2
58.17	5
58.18	6
58.19	9
58.2	5
58.21	4
58.22	9
58.23	9
58.24	3
58.25	7
58.26	6
58.27	7
58.28	4
58.29	6
58.3	7
58.31	10
58.32	9
58.33	3
58.34	3
58.35	7
58.36	7
58.37	3
58.38	5
58.39	5
58.4	8
58.41	4
58.42	8
58.43	3
58.44	6
58.45	4
58.46	5
58.47	4
58.48	7
58.49	6
58.5	5
58.51	5
58.52	6
58.53	6
58.54	5
58.55	1
58.56	5
58.57	2
58.58	10
58.59	2
58.6	6
58.61	7
58.62	10
58.63	2
58.64	4
58.65	5
58.66	7
58.67	4
58.68	6
58.69	7
58.7	12
58.71	6
58.72	5
58.73	7
58.74	5
58.75	3
58.76	6
58.77	4
58.78	7
58.79	4
58.8	8
58.81	3
58.82	9
58.83	6
58.84	6
58.85	9
58.86	7
58.87	8
58.88	7
58.89	7
58.9	8
58.91	7
58.92	12
58.93	5
58.94	6
58.95	5
58.96	12
58.97	7
58.98	3
58.99	7
59	6
59.01	5
59.02	4
59.03	7
59.04	6
59.05	8
59.06	3
59.07	9
59.08	5
59.09	10
59.1	2
59.11	5
59.12	7
59.13	5
59.14	6
59.15	6
59.16	7
59.17	6
59.18	7
59.19	8
59.2	11
59.21	7
59.22	8
59.23	8
59.24	7
59.25	6
59.26	1
59.27	9
59.28	3
59.29	8
59.3	5
59.31	8
59.32	6
59.33	6
59.34	7
59.35	5
59.36	2
59.37	6
59.38	8
59.39	8
59.4	3
59.41	3
59.42	7
59.43	4
59.44	8
59.45	6
59.46	5
59.47	5
59.48	2
59.49	9
59.5	5
59.51	5
59.52	5
59.53	6
59.54	1
59.55	4
59.56	4
59.57	9
59.58	4
59.59	4
59.6	7
59.61	6
59.62	6
59.63	13
59.64	2
59.65	1
59.66	6
59.67	7
59.68	1
59.69	5
59.7	7
59.71	5
59.72	6
59.73	4
59.74	6
59.75	5
59.76	6
59.77	5
59.78	5
59.79	7
59.8	3
59.81	9
59.82	9
59.83	6
59.84	3
59.85	4
59.86	6
59.87	10
59.88	12
59.89	7
59.9	7
59.91	8
59.92	5
59.93	7
59.94	4
59.95	6
59.96	12
59.97	11
59.98	5
59.99	2
60	7
60.01	9
60.02	6
60.03	5
60.04	2
60.05	8
60.06	7
60.07	5
60.08	5
60.09	5
60.1	6
60.11	9
60.12	3
60.13	3
60.14	5
60.15	5
60.16	4
60.17	3
60.18	4
60.19	5
60.2	12
60.21	3
60.22	9
60.23	2
60.24	6
60.25	6
60.26	6
60.27	6
60.28	8
60.29	5
60.3	8
60.31	9
60.32	3
60.33	6
60.34	11
60.35	7
60.36	3
60.37	4
60.38	3
60.39	11
60.4	8
60.41	6
60.42	4
60.43	9
60.44	8
60.45	8
60.46	11
60.47	9
60.48	11
60.49	6
60.5	5
60.51	8
60.52	6
60.53	4
60.54	6
60.55	6
60.56	12
60.57	4
60.58	10
60.59	5
60.6	8
60.61	4
60.62	13
60.63	7
60.64	3
60.65	7
60.66	4
60.67	6
60.68	3
60.69	3
60.7	0
60.71	8
60.72	2
60.73	5
60.74	8
60.75	3
60.76	10
60.77	4
60.78	3
60.79	4
60.8	5
60.81	4
60.82	8
60.83	4
60.84	6
60.85	6
60.86	6
60.87	4
60.88	5
60.89	13
60.9	5
60.91	9
60.92	6
60.93	8
60.94	6
60.95	5
60.96	10
60.97	9
60.98	11
60.99	10
61	4
61.01	13
61.02	2
61.03	6
61.04	4
61.05	4
61.06	4
61.07	8
61.08	4
61.09	8
61.1	10
61.11	6
61.12	7
61.13	6
61.14	5
61.15	6
61.16	7
61.17	3
61.18	7
61.19	5
61.2	6
61.21	8
61.22	8
61.23	4
61.24	7
61.25	7
61.26	7
61.27	13
61.28	7
61.29	9
61.3	2
61.31	6
61.32	9
61.33	6
61.34	10
61.35	6
61.36	4
61.37	8
61.38	8
61.39	10
61.4	7
61.41	6
61.42	3
61.43	9
61.44	3
61.45	3
61.46	6
61.47	4
61.48	4
61.49	4
61.5	7
61.51	4
61.52	10
61.53	6
61.54	5
61.55	2
61.56	9
61.57	4
61.58	0
61.59	9
61.6	3
61.61	2
61.62	3
61.63	6
61.64	7
61.65	3
61.66	4
61.67	6
61.68	4
61.69	5
61.7	9
61.71	5
61.72	4
61.73	5
61.74	9
61.75	7
61.76	7
61.77	8
61.78	7
61.79	4
61.8	6
61.81	2
61.82	4
61.83	4
61.84	4
61.85	4
61.86	6
61.87	5
61.88	4
61.89	5
61.9	5
61.91	5
61.92	6
61.93	8
61.94	6
61.95	5
61.96	9
61.97	5
61.98	4
61.99	5
62	10
62.01	3
62.02	5
62.03	1
62.04	0
62.05	5
62.06	7
62.07	10
62.08	4
62.09	6
62.1	4
62.11	3
62.12	7
62.13	4
62.14	4
62.15	7
62.16	6
62.17	7
62.18	7
62.19	5
62.2	3
62.21	6
62.22	4
62.23	4
62.24	4
62.25	2
62.26	3
62.27	3
62.28	5
62.29	7
62.3	7
62.31	7
62.32	10
62.33	6
62.34	5
62.35	9
62.36	4
62.37	7
62.38	8
62.39	6
62.4	8
62.41	5
62.42	8
62.43	6
62.44	6
62.45	9
62.46	8
62.47	3
62.48	4
62.49	6
62.5	7
62.51	5
62.52	7
62.53	3
62.54	6
62.55	10
62.56	10
62.57	0
62.58	5
62.59	9
62.6	5
62.61	7
62.62	1
62.63	5
62.64	7
62.65	5
62.66	5
62.67	6
62.68	5
62.69	1
62.7	5
62.71	3
62.72	7
62.73	7
62.74	6
62.75	7
62.76	8
62.77	6
62.78	8
62.79	5
62.8	3
62.81	5
62.82	6
62.83	5
62.84	9
62.85	1
62.86	5
62.87	10
62.88	7
62.89	9
62.9	5
62.91	1
62.92	5
62.93	11
62.94	5
62.95	1
62.96	2
62.97	6
62.98	5
62.99	6
63	7
63.01	5
63.02	3
63.03	8
63.04	8
63.05	6
63.06	11
63.07	11
63.08	4
63.09	7
63.1	4
63.11	5
63.12	8
63.13	11
63.14	9
63.15	2
63.16	3
63.17	6
63.18	8
63.19	11
63.2	5
63.21	6
63.22	3
63.23	7
63.24	8
63.25	6
63.26	9
63.27	4
63.28	8
63.29	5
63.3	5
63.31	6
63.32	5
63.33	8
63.34	5
63.35	10
63.36	5
63.37	4
63.38	2
63.39	4
63.4	6
63.41	7
63.42	5
63.43	7
63.44	8
63.45	2
63.46	6
63.47	6
63.48	3
63.49	4
63.5	10
63.51	12
63.52	2
63.53	4
63.54	6
63.55	7
63.56	5
63.57	6
63.58	8
63.59	5
63.6	8
63.61	5
63.62	7
63.63	4
63.64	9
63.65	5
63.66	4
63.67	5
63.68	6
63.69	5
63.7	5
63.71	6
63.72	6
63.73	4
63.74	2
63.75	6
63.76	3
63.77	7
63.78	3
63.79	6
63.8	3
63.81	4
63.82	4
63.83	5
63.84	4
63.85	8
63.86	4
63.87	5
63.88	5
63.89	5
63.9	4
63.91	6
63.92	3
63.93	5
63.94	6
63.95	8
63.96	5
63.97	5
63.98	6
63.99	9
64	6
64.01	10
64.02	3
64.03	6
64.04	8
64.05	5
64.06	2
64.07	4
64.08	4
64.09	5
64.1	9
64.11	10
64.12	7
64.13	4
64.14	2
64.15	4
64.16	5
64.17	7
64.18	4
64.19	6
64.2	5
64.21	2
64.22	3
64.23	2
64.24	6
64.25	5
64.26	7
64.27	0
64.28	11
64.29	3
64.3	6
64.31	0
64.32	7
64.33	9
64.34	6
64.35	7
64.36	3
64.37	11
64.38	9
64.39	7
64.4	7
64.41	4
64.42	2
64.43	2
64.44	5
64.45	8
64.46	7
64.47	14
64.48	9
64.49	4
64.5	2
64.51	5
64.52	3
64.53	9
64.54	5
64.55	5
64.56	8
64.57	4
64.58	10
64.59	8
64.6	12
64.61	5
64.62	9
64.63	7
64.64	7
64.65	1
64.66	4
64.67	8
64.68	3
64.69	11
64.7	5
64.71	4
64.72	9
64.73	5
64.74	6
64.75	6
64.76	7
64.77	5
64.78	9
64.79	1
64.8	7
64.81	5
64.82	3
64.83	10
64.84	8
64.85	10
64.86	5
64.87	5
64.88	7
64.89	6
64.9	2
64.91	7
64.92	4
64.93	3
64.94	7
64.95	4
64.96	9
64.97	6
64.98	9
64.99	10
65	6
65.01	6
65.02	6
65.03	9
65.04	3
65.05	6
65.06	6
65.07	3
65.08	9
65.09	7
65.1	8
65.11	6
65.12	6
65.13	5
65.14	7
65.15	5
65.16	3
65.17	7
65.18	10
65.19	9
65.2	7
65.21	8
65.22	5
65.23	7
65.24	3
65.25	6
65.26	4
65.27	7
65.28	11
65.29	4
65.3	9
65.31	7
65.32	7
65.33	7
65.34	5
65.35	10
65.36	7
65.37	5
65.38	6
65.39	4
65.4	7
65.41	9
65.42	4
65.43	9
65.44	7
65.45	10
65.46	4
65.47	12
65.48	10
65.49	5
65.5	6
65.51	7
65.52	8
65.53	7
65.54	19
65.55	7
65.56	5
65.57	15
65.58	9
65.59	12
65.6	17
65.61	15
65.62	19
65.63	20
65.64	12
65.65	18
65.66	37
65.67	22
65.68	32
65.69	19
65.7	24
65.71	17
65.72	20
65.73	26
65.74	19
65.75	14
65.76	14
65.77	19
65.78	13
65.79	14
65.8	20
65.81	13
65.82	12
65.83	11
65.84	12
65.85	13
65.86	15
65.87	11
65.88	7
65.89	8
65.9	4
65.91	17
65.92	11
65.93	10
65.94	8
65.95	9
65.96	7
65.97	5
65.98	10
65.99	8
66	6
66.01	13
66.02	10
66.03	13
66.04	19
66.05	22
66.06	27
66.07	15
66.08	21
66.09	20
66.1	17
66.11	19
66.12	21
66.13	17
66.14	15
66.15	6
66.16	11
66.17	10
66.18	14
66.19	7
66.2	7
66.21	4
66.22	12
66.23	13
66.24	12
66.25	8
66.26	9
66.27	9
66.28	9
66.29	13
66.3	6
66.31	12
66.32	8
66.33	13
66.34	4
66.35	4
66.36	3
66.37	12
66.38	8
66.39	6
66.4	6
66.41	11
66.42	6
66.43	5
66.44	9
66.45	5
66.46	10
66.47	5
66.48	6
66.49	6
66.5	2
66.51	7
66.52	5
66.53	4
66.54	6
66.55	12
66.56	9
66.57	6
66.58	6
66.59	6
66.6	4
66.61	7
66.62	4
66.63	9
66.64	10
66.65	4
66.66	6
66.67	8
66.68	5
66.69	2
66.7	5
66.71	4
66.72	8
66.73	8
66.74	6
66.75	7
66.76	8
66.77	2
66.78	9
66.79	9
66.8	4
66.81	8
66.82	11
66.83	5
66.84	3
66.85	7
66.86	5
66.87	1
66.88	8
66.89	11
66.9	4
66.91	4
66.92	8
66.93	3
66.94	6
66.95	3
66.96	5
66.97	13
66.98	10
66.99	7
67	3
67.01	6
67.02	2
67.03	3
67.04	9
67.05	5
67.06	6
67.07	4
67.08	5
67.09	9
67.1	4
67.11	9
67.12	3
67.13	6
67.14	5
67.15	7
67.16	8
67.17	4
67.18	4
67.19	5
67.2	4
67.21	6
67.22	7
67.23	7
67.24	5
67.25	3
67.26	8
67.27	7
67.28	7
67.29	6
67.3	6
67.31	7
67.32	7
67.33	4
67.34	5
67.35	3
67.36	9
67.37	5
67.38	2
67.39	4
67.4	6
67.41	2
67.42	6
67.43	2
67.44	7
67.45	5
67.46	6
67.47	8
67.48	7
67.49	3
67.5	6
67.51	6
67.52	8
67.53	6
67.54	10
67.55	5
67.56	5
67.57	6
67.58	9
67.59	6
67.6	2
67.61	8
67.62	8
67.63	8
67.64	5
67.65	4
67.66	3
67.67	5
67.68	5
67.69	8
67.7	6
67.71	3
67.72	7
67.73	10
67.74	3
67.75	9
67.76	4
67.77	7
67.78	4
67.79	8
67.8	4
67.81	7
67.82	4
67.83	8
67.84	3
67.85	5
67.86	2
67.87	6
67.88	4
67.89	5
67.9	3
67.91	9
67.92	7
67.93	5
67.94	6
67.95	11
67.96	4
67.97	9
67.98	8
67.99	5
68	7
68.01	6
68.02	9
68.03	4
68.04	4
68.05	5
68.06	1
68.07	6
68.08	9
68.09	8
68.1	6
68.11	5
68.12	4
68.13	3
68.14	5
68.15	6
68.16	6
68.17	6
68.18	7
68.19	5
68.2	9
68.21	11
68.22	6
68.23	5
68.24	7
68.25	9
68.26	7
68.27	8
68.28	2
68.29	11
68.3	12
68.31	4
68.32	4
68.33	3
68.34	8
68.35	9
68.36	2
68.37	8
68.38	4
68.39	3
68.4	5
68.41	9
68.42	7
68.43	4
68.44	7
68.45	8
68.46	3
68.47	3
68.48	4
68.49	5
68.5	5
68.51	5
68.52	8
68.53	5
68.54	9
68.55	10
68.56	7
68.57	4
68.58	4
68.59	9
68.6	7
68.61	4
68.62	1
68.63	12
68.64	7
68.65	4
68.66	5
68.67	7
68.68	6
68.69	6
68.7	10
68.71	3
68.72	2
68.73	6
68.74	6
68.75	4
68.76	3
68.77	3
68.78	8
68.79	9
68.8	9
68.81	7
68.82	7
68.83	5
68.84	7
68.85	3
68.86	7
68.87	9
68.88	9
68.89	6
68.9	2
68.91	7
68.92	7
68.93	4
68.94	5
68.95	5
68.96	5
68.97	4
68.98	7
68.99	3
69	5
69.01	5
69.02	7
69.03	8
69.04	10
69.05	2
69.06	7
69.07	9
69.08	6
69.09	6
69.1	6
69.11	5
69.12	2
69.13	3
69.14	5
69.15	7
69.16	2
69.17	6
69.18	5
69.19	3
69.2	7
69.21	5
69.22	7
69.23	3
69.24	14
69.25	10
69.26	7
69.27	5
69.28	10
69.29	8
69.3	10
69.31	11
69.32	9
69.33	7
69.34	6
69.35	9
69.36	4
69.37	6
69.38	8
69.39	9
69.4	4
69.41	2
69.42	8
69.43	3
69.44	7
69.45	8
69.46	9
69.47	7
69.48	6
69.49	5
69.5	7
69.51	7
69.52	6
69.53	6
69.54	4
69.55	4
69.56	6
69.57	7
69.58	8
69.59	7
69.6	5
69.61	7
69.62	4
69.63	11
69.64	7
69.65	8
69.66	4
69.67	13
69.68	5
69.69	9
69.7	7
69.71	5
69.72	3
69.73	4
69.74	1
69.75	8
69.76	10
69.77	10
69.78	8
69.79	12
69.8	3
69.81	6
69.82	4
69.83	4
69.84	8
69.85	3
69.86	4
69.87	6
69.88	8
69.89	5
69.9	6
69.91	5
69.92	5
69.93	5
69.94	5
69.95	6
69.96	7
69.97	8
69.98	3
69.99	8
70	4
70.01	2
70.02	3
70.03	3
70.04	6
70.05	8
70.06	6
70.07	7
70.08	9
70.09	5
70.1	5
70.11	2
70.12	9
70.13	3
70.14	6
70.15	8
70.16	10
70.17	8
70.18	5
70.19	4
70.2	10
70.21	3
70.22	6
70.23	8
70.24	5
70.25	6
70.26	3
70.27	6
70.28	8
70.29	8
70.3	10
70.31	9
70.32	6
70.33	8
70.34	4
70.35	12
70.36	7
70.37	12
70.38	3
70.39	10
70.4	6
70.41	7
70.42	4
70.43	9
70.44	8
70.45	6
70.46	12
70.47	8
70.48	4
70.49	9
70.5	5
70.51	8
70.52	9
70.53	9
70.54	10
70.55	9
70.56	3
70.57	10
70.58	6
70.59	8
70.6	7
70.61	4
70.62	7
70.63	3
70.64	4
70.65	5
70.66	11
70.67	4
70.68	6
70.69	5
70.7	4
70.71	5
70.72	4
70.73	6
70.74	9
70.75	5
70.76	7
70.77	5
70.78	1
70.79	1
70.8	8
70.81	3
70.82	3
70.83	5
70.84	4
70.85	6
70.86	7
70.87	1
70.88	5
70.89	6
70.9	3
70.91	11
70.92	5
70.93	5
70.94	4
70.95	5
70.96	10
70.97	7
70.98	5
70.99	3
71	10
71.01	4
71.02	7
71.03	3
71.04	5
71.05	2
71.06	6
71.07	6
71.08	6
71.09	7
71.1	5
71.11	3
71.12	9
71.13	4
71.14	8
71.15	8
71.16	3
71.17	3
71.18	7
71.19	6
71.2	7
71.21	11
71.22	5
71.23	5
71.24	5
71.25	8
71.26	9
71.27	4
71.28	8
71.29	4
71.3	4
71.31	4
71.32	7
71.33	4
71.34	8
71.35	6
71.36	8
71.37	8
71.38	7
71.39	7
71.4	4
71.41	2
71.42	7
71.43	9
71.44	9
71.45	6
71.46	3
71.47	7
71.48	9
71.49	6
71.5	7
71.51	4
71.52	7
71.53	8
71.54	4
71.55	2
71.56	8
71.57	4
71.58	7
71.59	8
71.6	3
71.61	9
71.62	4
71.63	7
71.64	7
71.65	9
71.66	5
71.67	3
71.68	4
71.69	4
71.7	4
71.71	7
71.72	10
71.73	8
71.74	9
71.75	7
71.76	4
71.77	10
71.78	8
71.79	6
71.8	5
71.81	9
71.82	7
71.83	6
71.84	7
71.85	7
71.86	11
71.87	8
71.88	7
71.89	4
71.9	2
71.91	7
71.92	5
71.93	7
71.94	4
71.95	4
71.96	8
71.97	3
71.98	8
71.99	4
72	8
72.01	2
72.02	5
72.03	4
72.04	9
72.05	6
72.06	9
72.07	9
72.08	3
72.09	5
72.1	11
72.11	5
72.12	4
72.13	5
72.14	6
72.15	4
72.16	4
72.17	4
72.18	6
72.19	2
72.2	5
72.21	5
72.22	10
72.23	7
72.24	7
72.25	1
72.26	4
72.27	7
72.28	5
72.29	9
72.3	2
72.31	7
72.32	4
72.33	6
72.34	7
72.35	10
72.36	7
72.37	5
72.38	9
72.39	4
72.4	10
72.41	6
72.42	12
72.43	5
72.44	8
72.45	5
72.46	6
72.47	4
72.48	8
72.49	3
72.5	6
72.51	6
72.52	5
72.53	8
72.54	9
72.55	1
72.56	4
72.57	6
72.58	6
72.59	4
72.6	5
72.61	11
72.62	7
72.63	12
72.64	6
72.65	1
72.66	8
72.67	6
72.68	10
72.69	13
72.7	8
72.71	8
72.72	7
72.73	5
72.74	3
72.75	9
72.76	3
72.77	10
72.78	5
72.79	4
72.8	6
72.81	5
72.82	4
72.83	6
72.84	5
72.85	10
72.86	9
72.87	7
72.88	12
72.89	11
72.9	4
72.91	8
72.92	4
72.93	3
72.94	9
72.95	6
72.96	4
72.97	6
72.98	9
72.99	3
73	5
73.01	7
73.02	6
73.03	10
73.04	8
73.05	9
73.06	6
73.07	5
73.08	8
73.09	14
73.1	9
73.11	6
73.12	5
73.13	5
73.14	4
73.15	4
73.16	5
73.17	5
73.18	6
73.19	3
73.2	6
73.21	4
73.22	6
73.23	8
73.24	9
73.25	4
73.26	6
73.27	6
73.28	11
73.29	5
73.3	10
73.31	5
73.32	10
73.33	7
73.34	13
73.35	7
73.36	5
73.37	9
73.38	6
73.39	5
73.4	2
73.41	7
73.42	8
73.43	5
73.44	6
73.45	6
73.46	5
73.47	3
73.48	8
73.49	6
73.5	6
73.51	7
73.52	6
73.53	9
73.54	7
73.55	2
73.56	9
73.57	4
73.58	2
73.59	2
73.6	2
73.61	9
73.62	7
73.63	8
73.64	5
73.65	10
73.66	8
73.67	7
73.68	9
73.69	9
73.7	8
73.71	5
73.72	8
73.73	6
73.74	7
73.75	9
73.76	4
73.77	4
73.78	8
73.79	4
73.8	5
73.81	7
73.82	9
73.83	9
73.84	9
73.85	8
73.86	6
73.87	10
73.88	6
73.89	7
73.9	8
73.91	3
73.92	4
73.93	10
73.94	6
73.95	8
73.96	3
73.97	3
73.98	9
73.99	4
74	4
74.01	7
74.02	7
74.03	4
74.04	6
74.05	7
74.06	7
74.07	3
74.08	7
74.09	6
74.1	6
74.11	7
74.12	6
74.13	8
74.14	7
74.15	9
74.16	7
74.17	5
74.18	6
74.19	8
74.2	9
74.21	7
74.22	4
74.23	4
74.24	8
74.25	3
74.26	3
74.27	1
74.28	5
74.29	6
74.3	3
74.31	5
74.32	4
74.33	5
74.34	5
74.35	6
74.36	5
74.37	9
74.38	5
74.39	8
74.4	5
74.41	5
74.42	3
74.43	11
74.44	9
74.45	10
74.46	16
74.47	5
74.48	4
74.49	12
74.5	12
74.51	5
74.52	10
74.53	13
74.54	15
74.55	20
74.56	14
74.57	17
74.58	20
74.59	17
74.6	15
74.61	32
74.62	30
74.63	24
74.64	18
74.65	33
74.66	32
74.67	25
74.68	30
74.69	23
74.7	34
74.71	23
74.72	33
74.73	28
74.74	34
74.75	35
74.76	20
74.77	25
74.78	24
74.79	23
74.8	23
74.81	24
74.82	21
74.83	18
74.84	18
74.85	19
74.86	10
74.87	17
74.88	15
74.89	16
74.9	13
74.91	15
74.92	12
74.93	7
74.94	15
74.95	16
74.96	6
74.97	6
74.98	12
74.99	13
75	17
75.01	17
75.02	18
75.03	13
75.04	13
75.05	11
75.06	11
75.07	21
75.08	17
75.09	14
75.1	24
75.11	21
75.12	20
75.13	29
75.14	29
75.15	28
75.16	20
75.17	19
75.18	20
75.19	22
75.2	21
75.21	13
75.22	16
75.23	9
75.24	18
75.25	18
75.26	14
75.27	15
75.28	11
75.29	17
75.3	14
75.31	11
75.32	9
75.33	8
75.34	11
75.35	10
75.36	17
75.37	16
75.38	9
75.39	11
75.4	11
75.41	8
75.42	8
75.43	7
75.44	11
75.45	15
75.46	8
75.47	8
75.48	7
75.49	6
75.5	5
75.51	9
75.52	8
75.53	7
75.54	17
75.55	6
75.56	5
75.57	9
75.58	6
75.59	9
75.6	10
75.61	5
75.62	7
75.63	8
75.64	3
75.65	6
75.66	5
75.67	4
75.68	7
75.69	5
75.7	6
75.71	8
75.72	9
75.73	3
75.74	4
75.75	8
75.76	9
75.77	6
75.78	4
75.79	4
75.8	3
75.81	7
75.82	5
75.83	7
75.84	7
75.85	4
75.86	8
75.87	5
75.88	5
75.89	7
75.9	7
75.91	5
75.92	8
75.93	7
75.94	4
75.95	8
75.96	6
75.97	7
75.98	7
75.99	5
76	10
76.01	8
76.02	11
76.03	7
76.04	8
76.05	1
76.06	8
76.07	6
76.08	6
76.09	6
76.1	7
76.11	4
76.12	5
76.13	5
76.14	5
76.15	9
76.16	11
76.17	2
76.18	8
76.19	6
76.2	6
76.21	4
76.22	5
76.23	10
76.24	5
76.25	9
76.26	7
76.27	7
76.28	6
76.29	4
76.3	6
76.31	4
76.32	7
76.33	6
76.34	4
76.35	6
76.36	10
76.37	8
76.38	10
76.39	9
76.4	8
76.41	10
76.42	6
76.43	4
76.44	5
76.45	10
76.46	9
76.47	9
76.48	9
76.49	7
76.5	8
76.51	6
76.52	3
76.53	6
76.54	3
76.55	9
76.56	7
76.57	8
76.58	6
76.59	8
76.6	10
76.61	5
76.62	7
76.63	2
76.64	7
76.65	2
76.66	2
76.67	7
76.68	7
76.69	4
76.7	7
76.71	7
76.72	9
76.73	4
76.74	6
76.75	13
76.76	9
76.77	8
76.78	4
76.79	7
76.8	4
76.81	6
76.82	5
76.83	7
76.84	9
76.85	7
76.86	5
76.87	9
76.88	8
76.89	8
76.9	3
76.91	5
76.92	10
76.93	4
76.94	5
76.95	5
76.96	5
76.97	5
76.98	2
76.99	3
77	8
77.01	8
77.02	5
77.03	3
77.04	6
77.05	5
77.06	5
77.07	3
77.08	9
77.09	5
77.1	3
77.11	9
77.12	5
77.13	11
77.14	5
77.15	1
77.16	7
77.17	3
77.18	7
77.19	4
77.2	6
77.21	3
77.22	4
77.23	10
77.24	7
77.25	2
77.26	7
77.27	4
77.28	8
77.29	8
77.3	4
77.31	6
77.32	8
77.33	5
77.34	8
77.35	4
77.36	8
77.37	6
77.38	5
77.39	1
77.4	6
77.41	6
77.42	6
77.43	5
77.44	2
77.45	5
77.46	2
77.47	12
77.48	4
77.49	2
77.5	8
77.51	1
77.52	11
77.53	7
77.54	3
77.55	9
77.56	7
77.57	5
77.58	7
77.59	6
77.6	7
77.61	3
77.62	5
77.63	7
77.64	4
77.65	8
77.66	2
77.67	6
77.68	7
77.69	5
77.7	5
77.71	3
77.72	5
77.73	4
77.74	3
77.75	9
77.76	9
77.77	2
77.78	7
77.79	7
77.8	7
77.81	7
77.82	5
77.83	5
77.84	7
77.85	7
77.86	6
77.87	6
77.88	5
77.89	2
77.9	5
77.91	7
77.92	7
77.93	4
77.94	8
77.95	8
77.96	7
77.97	6
77.98	7
77.99	9
78	7
78.01	6
78.02	6
78.03	7
78.04	3
78.05	5
78.06	4
78.07	9
78.08	4
78.09	6
78.1	5
78.11	7
78.12	13
78.13	10
78.14	6
78.15	5
78.16	10
78.17	4
78.18	2
78.19	5
78.2	8
78.21	7
78.22	8
78.23	5
78.24	7
78.25	9
78.26	12
78.27	6
78.28	6
78.29	4
78.3	4
78.31	3
78.32	5
78.33	7
78.34	7
78.35	8
78.36	7
78.37	7
78.38	7
78.39	7
78.4	7
78.41	6
78.42	7
78.43	10
78.44	5
78.45	6
78.46	6
78.47	4
78.48	7
78.49	7
78.5	3
78.51	10
78.52	8
78.53	7
78.54	11
78.55	9
78.56	9
78.57	10
78.58	4
78.59	5
78.6	7
78.61	6
78.62	7
78.63	9
78.64	5
78.65	7
78.66	6
78.67	11
78.68	11
78.69	6
78.7	3
78.71	6
78.72	5
78.73	7
78.74	4
78.75	6
78.76	8
78.77	6
78.78	7
78.79	6
78.8	7
78.81	4
78.82	11
78.83	9
78.84	6
78.85	6
78.86	5
78.87	6
78.88	5
78.89	8
78.9	3
78.91	7
78.92	8
78.93	7
78.94	4
78.95	3
78.96	4
78.97	6
78.98	7
78.99	7
79	5
79.01	7
79.02	3
79.03	4
79.04	8
79.05	9
79.06	3
79.07	4
79.08	7
79.09	5
79.1	7
79.11	8
79.12	6
79.13	4
79.14	2
79.15	6
79.16	7
79.17	6
79.18	7
79.19	6
79.2	6
79.21	5
79.22	4
79.23	3
79.24	4
79.25	12
79.26	6
79.27	7
79.28	4
79.29	3
79.3	6
79.31	4
79.32	4
79.33	10
79.34	10
79.35	10
79.36	6
79.37	5
79.38	3
79.39	5
79.4	8
79.41	5
79.42	4
79.43	5
79.44	2
79.45	7
79.46	4
79.47	6
79.48	6
79.49	6
79.5	6
79.51	6
79.52	5
79.53	6
79.54	1
79.55	9
79.56	11
79.57	7
79.58	7
79.59	8
79.6	6
79.61	7
79.62	4
79.63	7
79.64	8
79.65	7
79.66	10
79.67	10
79.68	3
79.69	6
79.7	10
79.71	4
79.72	9
79.73	4
79.74	7
79.75	4
79.76	4
79.77	4
79.78	7
79.79	4
79.8	9
79.81	8
79.82	9
79.83	9
79.84	8
79.85	10
79.86	3
79.87	11
79.88	5
79.89	7
79.9	9
79.91	4
79.92	10
79.93	5
79.94	8
79.95	7
79.96	7
79.97	6
79.98	4
79.99	3
80	12
